#from:  nmrsu
#$$ 2022-11-15 17:39:54.431 +0100  nmrsu@av300wb
#$$ /opt/topspin3.2/monique/87Rb_RbF/2/pdata/1/procs
#$$ process /opt/topspin3.2/prog/mod/proc1d
# D:\SPECTRES_RECONSTRUITS_PAR_DMFIT\87RB_RBF\2_1D_TC_&_TS_25KHZ\PDATA\1\BL_1R.1
##freq 98.2174
##col_ Hz	Spectrum	Model	Line#1
500168	-0.0139031	0.0472881	0.000150917
500137	-0.0425906	0.0472801	0.000150936
500107	0.00390312	0.0472722	0.000150956
500076	0.103928	0.0472642	0.000150975
500045	0.244244	0.0472562	0.000150994
500015	0.427034	0.0472482	0.000151013
499984	0.668403	0.0472403	0.000151033
499954	0.988147	0.0472323	0.000151052
499923	1.39417	0.0472243	0.000151071
499893	1.86716	0.0472163	0.000151091
499862	2.35165	0.0472084	0.00015111
499832	2.75866	0.0472004	0.000151129
499801	2.98095	0.0471924	0.000151149
499771	2.91863	0.0471845	0.000151168
499740	2.50875	0.0471765	0.000151187
499710	1.7504	0.0471685	0.000151206
499679	0.717297	0.0471605	0.000151226
499649	-0.4475	0.0471526	0.000151245
499618	-1.55539	0.0471446	0.000151264
499588	-2.41024	0.0471366	0.000151284
499557	-2.85187	0.0471286	0.000151303
499527	-2.79411	0.0471207	0.000151322
499496	-2.24758	0.0471127	0.000151342
499466	-1.3207	0.0471047	0.000151361
499435	-0.197722	0.0470968	0.00015138
499405	0.901062	0.0470888	0.0001514
499374	1.76775	0.0470808	0.000151419
499344	2.25192	0.0470728	0.000151439
499313	2.29152	0.0470649	0.000151458
499283	1.92241	0.0470569	0.000151477
499252	1.26478	0.0470489	0.000151497
499222	0.490716	0.0470409	0.000151516
499191	-0.218353	0.047033	0.000151535
499160	-0.713334	0.047025	0.000151555
499130	-0.908128	0.047017	0.000151574
499099	-0.792581	0.0470091	0.000151594
499069	-0.425978	0.0470011	0.000151613
499038	0.0854562	0.0469931	0.000151632
499008	0.619756	0.0469851	0.000151652
498977	1.0701	0.0469772	0.000151671
498947	1.36756	0.0469692	0.000151691
498916	1.49061	0.0469612	0.00015171
498886	1.46079	0.0469533	0.000151729
498855	1.32766	0.0469453	0.000151749
498825	1.14899	0.0469373	0.000151768
498794	0.972762	0.0469293	0.000151788
498764	0.826047	0.0469214	0.000151807
498733	0.7133	0.0469134	0.000151827
498703	0.623009	0.0469054	0.000151846
498672	0.539184	0.0468974	0.000151865
498642	0.452772	0.0468895	0.000151885
498611	0.368547	0.0468815	0.000151904
498581	0.305056	0.0468735	0.000151924
498550	0.287759	0.0468656	0.000151943
498520	0.338069	0.0468576	0.000151963
498489	0.462575	0.0468496	0.000151982
498459	0.646591	0.0468416	0.000152002
498428	0.854775	0.0468337	0.000152021
498398	1.03922	0.0468257	0.000152041
498367	1.15257	0.0468177	0.00015206
498337	1.1623	0.0468097	0.00015208
498306	1.06139	0.0468018	0.000152099
498275	0.871797	0.0467938	0.000152118
498245	0.639419	0.0467858	0.000152138
498214	0.421762	0.0467779	0.000152157
498184	0.271881	0.0467699	0.000152177
498153	0.223484	0.0467619	0.000152196
498123	0.281569	0.0467539	0.000152216
498092	0.421484	0.046746	0.000152236
498062	0.596616	0.046738	0.000152255
498031	0.752269	0.04673	0.000152275
498001	0.841634	0.0467221	0.000152294
497970	0.838834	0.0467141	0.000152314
497940	0.745512	0.0467061	0.000152333
497909	0.588997	0.0466981	0.000152353
497879	0.413041	0.0466902	0.000152372
497848	0.264278	0.0466822	0.000152392
497818	0.178556	0.0466742	0.000152411
497787	0.171512	0.0466662	0.000152431
497757	0.235881	0.0466583	0.00015245
497726	0.346122	0.0466503	0.00015247
497696	0.468313	0.0466423	0.00015249
497665	0.571922	0.0466344	0.000152509
497635	0.639447	0.0466264	0.000152529
497604	0.670797	0.0466184	0.000152548
497574	0.681281	0.0466104	0.000152568
497543	0.694131	0.0466025	0.000152587
497513	0.730341	0.0465945	0.000152607
497482	0.799591	0.0465865	0.000152627
497451	0.895431	0.0465786	0.000152646
497421	0.996528	0.0465706	0.000152666
497390	1.07362	0.0465626	0.000152685
497360	1.0999	0.0465546	0.000152705
497329	1.06128	0.0465467	0.000152725
497299	0.962906	0.0465387	0.000152744
497268	0.829553	0.0465307	0.000152764
497238	0.699606	0.0465227	0.000152783
497207	0.614109	0.0465148	0.000152803
497177	0.604547	0.0465068	0.000152823
497146	0.683009	0.0464988	0.000152842
497116	0.838122	0.0464909	0.000152862
497085	1.03794	0.0464829	0.000152882
497055	1.23918	0.0464749	0.000152901
497024	1.39967	0.0464669	0.000152921
496994	1.49041	0.046459	0.000152941
496963	1.50312	0.046451	0.00015296
496933	1.45124	0.046443	0.00015298
496902	1.36397	0.0464351	0.000153
496872	1.27535	0.0464271	0.000153019
496841	1.21219	0.0464191	0.000153039
496811	1.18462	0.0464111	0.000153059
496780	1.18258	0.0464032	0.000153078
496750	1.17929	0.0463952	0.000153098
496719	1.14067	0.0463872	0.000153118
496689	1.03747	0.0463792	0.000153137
496658	0.856291	0.0463713	0.000153157
496628	0.605537	0.0463633	0.000153177
496597	0.314369	0.0463553	0.000153196
496566	0.0249812	0.0463474	0.000153216
496536	-0.219506	0.0463394	0.000153236
496505	-0.387453	0.0463314	0.000153256
496475	-0.467203	0.0463234	0.000153275
496444	-0.468947	0.0463155	0.000153295
496414	-0.419137	0.0463075	0.000153315
496383	-0.349306	0.0462995	0.000153334
496353	-0.283172	0.0462916	0.000153354
496322	-0.2265	0.0462836	0.000153374
496292	-0.163628	0.0462756	0.000153394
496261	-0.0622906	0.0462676	0.000153413
496231	0.114287	0.0462597	0.000153433
496200	0.391656	0.0462517	0.000153453
496170	0.770006	0.0462437	0.000153473
496139	1.21662	0.0462357	0.000153492
496109	1.66833	0.0462278	0.000153512
496078	2.04425	0.0462198	0.000153532
496048	2.26592	0.0462118	0.000153552
496017	2.27941	0.0462039	0.000153571
495987	2.07275	0.0461959	0.000153591
495956	1.68338	0.0461879	0.000153611
495926	1.19228	0.0461799	0.000153631
495895	0.706087	0.046172	0.000153651
495865	0.331131	0.046164	0.00015367
495834	0.146697	0.046156	0.00015369
495804	0.184578	0.0461481	0.00015371
495773	0.421072	0.0461401	0.00015373
495743	0.783619	0.0461321	0.00015375
495712	1.17055	0.0461241	0.000153769
495681	1.47848	0.0461162	0.000153789
495651	1.62976	0.0461082	0.000153809
495620	1.59223	0.0461002	0.000153829
495590	1.38598	0.0460922	0.000153849
495559	1.07522	0.0460843	0.000153869
495529	0.748009	0.0460763	0.000153888
495498	0.489694	0.0460683	0.000153908
495468	0.35815	0.0460604	0.000153928
495437	0.367716	0.0460524	0.000153948
495407	0.486603	0.0460444	0.000153968
495376	0.648219	0.0460364	0.000153988
495346	0.772825	0.0460285	0.000154007
495315	0.792987	0.0460205	0.000154027
495285	0.675088	0.0460125	0.000154047
495254	0.430497	0.0460046	0.000154067
495224	0.113156	0.0459966	0.000154087
495193	-0.195731	0.0459886	0.000154107
495163	-0.411237	0.0459806	0.000154127
495132	-0.469497	0.0459727	0.000154147
495102	-0.346478	0.0459647	0.000154166
495071	-0.0651781	0.0459567	0.000154186
495041	0.3106	0.0459488	0.000154206
495010	0.694037	0.0459408	0.000154226
494980	0.999191	0.0459328	0.000154246
494949	1.16401	0.0459248	0.000154266
494919	1.16579	0.0459169	0.000154286
494888	1.02494	0.0459089	0.000154306
494858	0.796184	0.0459009	0.000154326
494827	0.550566	0.045893	0.000154346
494796	0.353781	0.045885	0.000154366
494766	0.247584	0.045877	0.000154386
494735	0.2398	0.045869	0.000154405
494705	0.305522	0.0458611	0.000154425
494674	0.398725	0.0458531	0.000154445
494644	0.470062	0.0458451	0.000154465
494613	0.484912	0.0458371	0.000154485
494583	0.435666	0.0458292	0.000154505
494552	0.344225	0.0458212	0.000154525
494522	0.253888	0.0458132	0.000154545
494491	0.213356	0.0458053	0.000154565
494461	0.258125	0.0457973	0.000154585
494430	0.395581	0.0457893	0.000154605
494400	0.599194	0.0457813	0.000154625
494369	0.814191	0.0457734	0.000154645
494339	0.973656	0.0457654	0.000154665
494308	1.02045	0.0457574	0.000154685
494278	0.928197	0.0457495	0.000154705
494247	0.714516	0.0457415	0.000154725
494217	0.441528	0.0457335	0.000154745
494186	0.202453	0.0457255	0.000154765
494156	0.0970187	0.0457176	0.000154785
494125	0.202197	0.0457096	0.000154805
494095	0.546372	0.0457016	0.000154825
494064	1.09478	0.0456937	0.000154845
494034	1.75108	0.0456857	0.000154865
494003	2.37585	0.0456777	0.000154885
493972	2.81814	0.0456697	0.000154905
493942	2.95223	0.0456618	0.000154925
493911	2.71041	0.0456538	0.000154945
493881	2.10291	0.0456458	0.000154965
493850	1.21946	0.0456378	0.000154985
493820	0.21175	0.0456299	0.000155005
493789	-0.739462	0.0456219	0.000155026
493759	-1.46439	0.0456139	0.000155046
493728	-1.84169	0.045606	0.000155066
493698	-1.82406	0.045598	0.000155086
493667	-1.44604	0.04559	0.000155106
493637	-0.812425	0.045582	0.000155126
493606	-0.0706937	0.0455741	0.000155146
493576	0.625172	0.0455661	0.000155166
493545	1.15019	0.0455581	0.000155186
493515	1.43448	0.0455502	0.000155206
493484	1.47394	0.0455422	0.000155226
493454	1.3237	0.0455342	0.000155246
493423	1.07712	0.0455262	0.000155267
493393	0.836769	0.0455183	0.000155287
493362	0.685359	0.0455103	0.000155307
493332	0.664562	0.0455023	0.000155327
493301	0.766775	0.0454944	0.000155347
493271	0.941306	0.0454864	0.000155367
493240	1.1125	0.0454784	0.000155387
493210	1.20393	0.0454704	0.000155407
493179	1.16172	0.0454625	0.000155428
493149	0.970166	0.0454545	0.000155448
493118	0.65575	0.0454465	0.000155468
493087	0.278462	0.0454386	0.000155488
493057	-0.0862812	0.0454306	0.000155508
493026	-0.370053	0.0454226	0.000155528
492996	-0.531078	0.0454146	0.000155548
492965	-0.565816	0.0454067	0.000155569
492935	-0.508875	0.0453987	0.000155589
492904	-0.421294	0.0453907	0.000155609
492874	-0.370825	0.0453827	0.000155629
492843	-0.409766	0.0453748	0.000155649
492813	-0.557019	0.0453668	0.00015567
492782	-0.789694	0.0453588	0.00015569
492752	-1.04721	0.0453509	0.00015571
492721	-1.24696	0.0453429	0.00015573
492691	-1.30772	0.0453349	0.00015575
492660	-1.17425	0.0453269	0.000155771
492630	-0.836322	0.045319	0.000155791
492599	-0.336359	0.045311	0.000155811
492569	0.236834	0.045303	0.000155831
492538	0.7675	0.0452951	0.000155851
492508	1.14079	0.0452871	0.000155872
492477	1.27212	0.0452791	0.000155892
492447	1.13034	0.0452711	0.000155912
492416	0.748462	0.0452632	0.000155932
492386	0.218597	0.0452552	0.000155953
492355	-0.328116	0.0452472	0.000155973
492325	-0.751975	0.0452393	0.000155993
492294	-0.938244	0.0452313	0.000156013
492264	-0.825447	0.0452233	0.000156034
492233	-0.421237	0.0452153	0.000156054
492202	0.198125	0.0452074	0.000156074
492172	0.904819	0.0451994	0.000156094
492141	1.54882	0.0451914	0.000156115
492111	1.99255	0.0451835	0.000156135
492080	2.14215	0.0451755	0.000156155
492050	1.96817	0.0451675	0.000156176
492019	1.51047	0.0451595	0.000156196
491989	0.866928	0.0451516	0.000156216
491958	0.168866	0.0451436	0.000156236
491928	-0.450131	0.0451356	0.000156257
491897	-0.884244	0.0451277	0.000156277
491867	-1.077	0.0451197	0.000156297
491836	-1.0295	0.0451117	0.000156318
491806	-0.794081	0.0451037	0.000156338
491775	-0.456009	0.0450958	0.000156358
491745	-0.108684	0.0450878	0.000156379
491714	0.170859	0.0450798	0.000156399
491684	0.339637	0.0450719	0.000156419
491653	0.395522	0.0450639	0.00015644
491623	0.372262	0.0450559	0.00015646
491592	0.324988	0.0450479	0.00015648
491562	0.311037	0.04504	0.000156501
491531	0.372006	0.045032	0.000156521
491501	0.521984	0.045024	0.000156541
491470	0.745034	0.0450161	0.000156562
491440	1.00193	0.0450081	0.000156582
491409	1.24356	0.0450001	0.000156602
491378	1.42633	0.0449921	0.000156623
491348	1.52475	0.0449842	0.000156643
491317	1.53739	0.0449762	0.000156664
491287	1.48465	0.0449682	0.000156684
491256	1.39927	0.0449603	0.000156704
491226	1.31332	0.0449523	0.000156725
491195	1.24571	0.0449443	0.000156745
491165	1.19481	0.0449363	0.000156766
491134	1.13859	0.0449284	0.000156786
491104	1.04239	0.0449204	0.000156806
491073	0.872025	0.0449124	0.000156827
491043	0.607859	0.0449045	0.000156847
491012	0.255375	0.0448965	0.000156868
490982	-0.151653	0.0448885	0.000156888
490951	-0.556775	0.0448805	0.000156909
490921	-0.894078	0.0448726	0.000156929
490890	-1.10533	0.0448646	0.000156949
490860	-1.15612	0.0448566	0.00015697
490829	-1.04581	0.0448487	0.00015699
490799	-0.808397	0.0448407	0.000157011
490768	-0.503497	0.0448327	0.000157031
490738	-0.199737	0.0448247	0.000157052
490707	0.0444719	0.0448168	0.000157072
490677	0.197394	0.0448088	0.000157093
490646	0.262431	0.0448008	0.000157113
490616	0.275975	0.0447929	0.000157134
490585	0.294925	0.0447849	0.000157154
490555	0.377294	0.0447769	0.000157174
490524	0.561581	0.0447689	0.000157195
490493	0.851097	0.044761	0.000157215
490463	1.20819	0.044753	0.000157236
490432	1.56068	0.044745	0.000157256
490402	1.81918	0.0447371	0.000157277
490371	1.90096	0.0447291	0.000157297
490341	1.75379	0.0447211	0.000157318
490310	1.37298	0.0447131	0.000157339
490280	0.806766	0.0447052	0.000157359
490249	0.147797	0.0446972	0.00015738
490219	-0.487119	0.0446892	0.0001574
490188	-0.984159	0.0446813	0.000157421
490158	-1.25939	0.0446733	0.000157441
490127	-1.27824	0.0446653	0.000157462
490097	-1.06278	0.0446573	0.000157482
490066	-0.684537	0.0446494	0.000157503
490036	-0.245347	0.0446414	0.000157523
490005	0.148925	0.0446334	0.000157544
489975	0.414491	0.0446255	0.000157564
489944	0.508909	0.0446175	0.000157585
489914	0.438612	0.0446095	0.000157606
489883	0.253116	0.0446015	0.000157626
489853	0.0281875	0.0445936	0.000157647
489822	-0.157169	0.0445856	0.000157667
489792	-0.243175	0.0445776	0.000157688
489761	-0.205166	0.0445697	0.000157709
489731	-0.0585906	0.0445617	0.000157729
489700	0.147581	0.0445537	0.00015775
489670	0.346944	0.0445457	0.00015777
489639	0.476128	0.0445378	0.000157791
489608	0.493825	0.0445298	0.000157812
489578	0.392866	0.0445218	0.000157832
489547	0.202234	0.0445139	0.000157853
489517	-0.021325	0.0445059	0.000157873
489486	-0.209447	0.0444979	0.000157894
489456	-0.301156	0.0444899	0.000157915
489425	-0.259397	0.044482	0.000157935
489395	-0.0804531	0.044474	0.000157956
489364	0.20605	0.044466	0.000157977
489334	0.546403	0.0444581	0.000157997
489303	0.8781	0.0444501	0.000158018
489273	1.14677	0.0444421	0.000158038
489242	1.3199	0.0444341	0.000158059
489212	1.39331	0.0444262	0.00015808
489181	1.38919	0.0444182	0.0001581
489151	1.3463	0.0444102	0.000158121
489120	1.30573	0.0444023	0.000158142
489090	1.29652	0.0443943	0.000158163
489059	1.32556	0.0443863	0.000158183
489029	1.37474	0.0443784	0.000158204
488998	1.40623	0.0443704	0.000158225
488968	1.37432	0.0443624	0.000158245
488937	1.24044	0.0443544	0.000158266
488907	0.986959	0.0443465	0.000158287
488876	0.625653	0.0443385	0.000158307
488846	0.198472	0.0443305	0.000158328
488815	-0.230025	0.0443226	0.000158349
488785	-0.586553	0.0443146	0.00015837
488754	-0.805844	0.0443066	0.00015839
488723	-0.845834	0.0442986	0.000158411
488693	-0.697537	0.0442907	0.000158432
488662	-0.387047	0.0442827	0.000158452
488632	0.030525	0.0442747	0.000158473
488601	0.483572	0.0442668	0.000158494
488571	0.899556	0.0442588	0.000158515
488540	1.21976	0.0442508	0.000158535
488510	1.40962	0.0442428	0.000158556
488479	1.46253	0.0442349	0.000158577
488449	1.39668	0.0442269	0.000158598
488418	1.24644	0.0442189	0.000158619
488388	1.05119	0.044211	0.000158639
488357	0.844659	0.044203	0.00015866
488327	0.647966	0.044195	0.000158681
488296	0.467644	0.044187	0.000158702
488266	0.29895	0.0441791	0.000158722
488235	0.132753	0.0441711	0.000158743
488205	-0.0365031	0.0441631	0.000158764
488174	-0.204572	0.0441552	0.000158785
488144	-0.355188	0.0441472	0.000158806
488113	-0.462772	0.0441392	0.000158826
488083	-0.499531	0.0441312	0.000158847
488052	-0.444887	0.0441233	0.000158868
488022	-0.294387	0.0441153	0.000158889
487991	-0.0652719	0.0441073	0.00015891
487961	0.203506	0.0440994	0.000158931
487930	0.457384	0.0440914	0.000158951
487899	0.637353	0.0440834	0.000158972
487869	0.693769	0.0440754	0.000158993
487838	0.599241	0.0440675	0.000159014
487808	0.357278	0.0440595	0.000159035
487777	0.00419375	0.0440515	0.000159056
487747	-0.396725	0.0440436	0.000159077
487716	-0.767762	0.0440356	0.000159097
487686	-1.03326	0.0440276	0.000159118
487655	-1.13645	0.0440197	0.000159139
487625	-1.05253	0.0440117	0.00015916
487594	-0.794925	0.0440037	0.000159181
487564	-0.413241	0.0439957	0.000159202
487533	0.0167406	0.0439878	0.000159223
487503	0.408688	0.0439798	0.000159244
487472	0.683347	0.0439718	0.000159264
487442	0.784353	0.0439639	0.000159285
487411	0.688563	0.0439559	0.000159306
487381	0.409166	0.0439479	0.000159327
487350	-0.00881562	0.0439399	0.000159348
487320	-0.499031	0.043932	0.000159369
487289	-0.987444	0.043924	0.00015939
487259	-1.40586	0.043916	0.000159411
487228	-1.70238	0.0439081	0.000159432
487198	-1.84702	0.0439001	0.000159453
487167	-1.8321	0.0438921	0.000159474
487137	-1.6684	0.0438841	0.000159495
487106	-1.37932	0.0438762	0.000159516
487076	-0.994728	0.0438682	0.000159537
487045	-0.546725	0.0438602	0.000159558
487014	-0.0677125	0.0438523	0.000159578
486984	0.409494	0.0438443	0.000159599
486953	0.850881	0.0438363	0.00015962
486923	1.22129	0.0438283	0.000159641
486892	1.48668	0.0438204	0.000159662
486862	1.61879	0.0438124	0.000159683
486831	1.60155	0.0438044	0.000159704
486801	1.43725	0.0437965	0.000159725
486770	1.15029	0.0437885	0.000159746
486740	0.786456	0.0437805	0.000159767
486709	0.406794	0.0437726	0.000159788
486679	0.07675	0.0437646	0.000159809
486648	-0.147419	0.0437566	0.00015983
486618	-0.231528	0.0437486	0.000159851
486587	-0.172266	0.0437407	0.000159872
486557	0.000865625	0.0437327	0.000159893
486526	0.231547	0.0437247	0.000159914
486496	0.449534	0.0437168	0.000159935
486465	0.587462	0.0437088	0.000159957
486435	0.597384	0.0437008	0.000159978
486404	0.462659	0.0436928	0.000159999
486374	0.201981	0.0436849	0.00016002
486343	-0.135637	0.0436769	0.000160041
486313	-0.483684	0.0436689	0.000160062
486282	-0.775181	0.043661	0.000160083
486252	-0.9595	0.043653	0.000160104
486221	-1.01415	0.043645	0.000160125
486191	-0.948431	0.043637	0.000160146
486160	-0.798184	0.0436291	0.000160167
486129	-0.6133	0.0436211	0.000160188
486099	-0.441934	0.0436131	0.000160209
486068	-0.316178	0.0436052	0.00016023
486038	-0.243681	0.0435972	0.000160251
486007	-0.207569	0.0435892	0.000160273
485977	-0.174687	0.0435813	0.000160294
485946	-0.109384	0.0435733	0.000160315
485916	0.0116656	0.0435653	0.000160336
485885	0.188687	0.0435573	0.000160357
485855	0.395872	0.0435494	0.000160378
485824	0.587687	0.0435414	0.000160399
485794	0.713112	0.0435334	0.00016042
485763	0.733341	0.0435255	0.000160442
485733	0.637603	0.0435175	0.000160463
485702	0.451487	0.0435095	0.000160484
485672	0.234491	0.0435015	0.000160505
485641	0.066325	0.0434936	0.000160526
485611	0.0252812	0.0434856	0.000160547
485580	0.164384	0.0434776	0.000160568
485550	0.492331	0.0434697	0.00016059
485519	0.965281	0.0434617	0.000160611
485489	1.49283	0.0434537	0.000160632
485458	1.95751	0.0434458	0.000160653
485428	2.24322	0.0434378	0.000160674
485397	2.26563	0.0434298	0.000160695
485367	1.99568	0.0434218	0.000160717
485336	1.47018	0.0434139	0.000160738
485305	0.785584	0.0434059	0.000160759
485275	0.0764281	0.0433979	0.00016078
485244	-0.516309	0.04339	0.000160801
485214	-0.878734	0.043382	0.000160823
485183	-0.950506	0.043374	0.000160844
485153	-0.737409	0.043366	0.000160865
485122	-0.306803	0.0433581	0.000160886
485092	0.232437	0.0433501	0.000160908
485061	0.759734	0.0433421	0.000160929
485031	1.17386	0.0433342	0.00016095
485000	1.41684	0.0433262	0.000160971
484970	1.48419	0.0433182	0.000160993
484939	1.41942	0.0433103	0.000161014
484909	1.29508	0.0433023	0.000161035
484878	1.18665	0.0432943	0.000161056
484848	1.14743	0.0432863	0.000161078
484817	1.19226	0.0432784	0.000161099
484787	1.29461	0.0432704	0.00016112
484756	1.39787	0.0432624	0.000161141
484726	1.43684	0.0432545	0.000161163
484695	1.36231	0.0432465	0.000161184
